Unnamed: 0,time,position,velocity
0,0.0,0.7,0.0
2,0.001,0.699,-1.0
4,0.003,0.698,-0.5
6,0.005,0.697,-0.5
8,0.007,0.696,-0.5
10,0.009,0.695,-0.5
12,0.011,0.694,-0.5
14,0.013,0.693,-0.5
17,0.016,0.692,-0.333
19,0.018,0.691,-0.5
21,0.02,0.69,-0.5
23,0.022,0.689,-0.5
25,0.024,0.688,-0.5
27,0.026,0.687,-0.5
29,0.028,0.686,-0.5
32,0.031,0.685,-0.333
34,0.033,0.684,-0.5
36,0.035,0.683,-0.5
38,0.037,0.682,-0.5
40,0.039,0.681,-0.5
42,0.041,0.68,-0.5
45,0.044,0.679,-0.333
47,0.046,0.678,-0.5
49,0.048,0.677,-0.5
51,0.05,0.676,-0.5
53,0.052,0.675,-0.5
55,0.054,0.674,-0.5
57,0.056,0.673,-0.5
60,0.059,0.672,-0.333
62,0.061,0.671,-0.5
64,0.063,0.67,-0.5
66,0.065,0.669,-0.5
68,0.067,0.668,-0.5
71,0.07,0.667,-0.333
73,0.072,0.666,-0.5
75,0.074,0.665,-0.5
78,0.077,0.664,-0.333
80,0.079,0.663,-0.5
82,0.081,0.662,-0.5
84,0.083,0.661,-0.5
86,0.085,0.66,-0.5
88,0.087,0.659,-0.5
90,0.089,0.658,-0.5
93,0.092,0.657,-0.333
95,0.094,0.656,-0.5
98,0.097,0.655,-0.333
100,0.099,0.654,-0.5
103,0.102,0.653,-0.333
105,0.104,0.652,-0.5
108,0.107,0.651,-0.333
110,0.109,0.65,-0.5
113,0.112,0.649,-0.333
115,0.114,0.648,-0.5
118,0.117,0.647,-0.333
121,0.12,0.646,-0.333
124,0.123,0.645,-0.333
126,0.125,0.644,-0.5
128,0.127,0.643,-0.5
130,0.129,0.642,-0.5
133,0.132,0.641,-0.333
135,0.134,0.64,-0.5
138,0.137,0.639,-0.333
140,0.139,0.638,-0.5
143,0.142,0.637,-0.333
145,0.144,0.636,-0.5
147,0.146,0.635,-0.5
150,0.149,0.634,-0.333
152,0.151,0.633,-0.5
155,0.154,0.632,-0.333
157,0.156,0.631,-0.5
159,0.158,0.63,-0.5
162,0.161,0.629,-0.333
164,0.163,0.628,-0.5
167,0.166,0.627,-0.333
169,0.168,0.626,-0.5
171,0.17,0.625,-0.5
173,0.172,0.624,-0.5
176,0.175,0.623,-0.333
179,0.178,0.622,-0.333
181,0.18,0.621,-0.5
184,0.183,0.62,-0.333
186,0.185,0.619,-0.5
189,0.188,0.618,-0.333
191,0.19,0.617,-0.5
194,0.193,0.616,-0.333
196,0.195,0.615,-0.5
198,0.197,0.614,-0.5
201,0.2,0.613,-0.333
203,0.202,0.612,-0.5
206,0.205,0.611,-0.333
208,0.207,0.61,-0.5
211,0.21,0.609,-0.333
213,0.212,0.608,-0.5
216,0.215,0.607,-0.333
219,0.218,0.606,-0.333
221,0.22,0.605,-0.5
223,0.222,0.604,-0.5
226,0.225,0.603,-0.333
229,0.228,0.602,-0.333
232,0.231,0.601,-0.333
234,0.233,0.6,-0.5
236,0.235,0.599,-0.5
238,0.237,0.598,-0.5
240,0.239,0.597,-0.5
243,0.242,0.596,-0.333
245,0.244,0.595,-0.5
248,0.247,0.594,-0.333
251,0.25,0.593,-0.333
253,0.252,0.592,-0.5
256,0.255,0.591,-0.333
259,0.258,0.59,-0.333
262,0.261,0.589,-0.333
264,0.263,0.588,-0.5
267,0.266,0.587,-0.333
269,0.268,0.586,-0.5
272,0.271,0.585,-0.333
274,0.273,0.584,-0.5
277,0.276,0.583,-0.333
280,0.279,0.582,-0.333
282,0.281,0.581,-0.5
285,0.284,0.58,-0.333
288,0.287,0.579,-0.333
290,0.289,0.578,-0.5
293,0.292,0.577,-0.333
295,0.294,0.576,-0.5
298,0.297,0.575,-0.333
301,0.3,0.574,-0.333
304,0.303,0.573,-0.333
306,0.305,0.572,-0.5
310,0.309,0.571,-0.25
312,0.311,0.57,-0.5
316,0.315,0.569,-0.25
318,0.317,0.568,-0.5
321,0.32,0.567,-0.333
324,0.323,0.566,-0.333
327,0.326,0.565,-0.333
330,0.329,0.564,-0.333
333,0.332,0.563,-0.333
335,0.334,0.562,-0.5
338,0.337,0.561,-0.333
341,0.34,0.56,-0.333
343,0.342,0.559,-0.5
346,0.345,0.558,-0.333
349,0.348,0.557,-0.333
351,0.35,0.556,-0.5
354,0.353,0.555,-0.333
357,0.356,0.554,-0.333
360,0.359,0.553,-0.333
362,0.361,0.552,-0.5
365,0.364,0.551,-0.333
367,0.366,0.55,-0.5
370,0.369,0.549,-0.333
373,0.372,0.548,-0.333
376,0.375,0.547,-0.333
378,0.377,0.546,-0.5
382,0.381,0.545,-0.25
384,0.383,0.544,-0.5
387,0.386,0.543,-0.333
390,0.389,0.542,-0.333
393,0.392,0.541,-0.333
395,0.394,0.54,-0.5
398,0.397,0.539,-0.333
400,0.399,0.538,-0.5
404,0.403,0.537,-0.25
406,0.405,0.536,-0.5
409,0.408,0.535,-0.333
412,0.411,0.534,-0.333
415,0.414,0.533,-0.333
418,0.417,0.532,-0.333
421,0.42,0.531,-0.333
424,0.423,0.53,-0.333
427,0.426,0.529,-0.333
430,0.429,0.528,-0.333
433,0.432,0.527,-0.333
436,0.435,0.526,-0.333
439,0.438,0.525,-0.333
441,0.44,0.524,-0.5
444,0.443,0.523,-0.333
447,0.446,0.522,-0.333
450,0.449,0.521,-0.333
453,0.452,0.52,-0.333
456,0.455,0.519,-0.333
458,0.457,0.518,-0.5
461,0.46,0.517,-0.333
463,0.462,0.516,-0.5
467,0.466,0.515,-0.25
469,0.468,0.514,-0.5
472,0.471,0.513,-0.333
475,0.474,0.512,-0.333
478,0.477,0.511,-0.333
481,0.48,0.51,-0.333
483,0.482,0.509,-0.5
486,0.485,0.508,-0.333
489,0.488,0.507,-0.333
491,0.49,0.506,-0.5
494,0.493,0.505,-0.333
498,0.497,0.504,-0.25
501,0.5,0.503,-0.333
503,0.502,0.502,-0.5
506,0.505,0.501,-0.333
509,0.508,0.5,-0.333
512,0.511,0.499,-0.333
515,0.514,0.498,-0.333
518,0.517,0.497,-0.333
521,0.52,0.496,-0.333
524,0.523,0.495,-0.333
527,0.526,0.494,-0.333
530,0.529,0.493,-0.333
532,0.531,0.492,-0.5
536,0.535,0.491,-0.25
538,0.537,0.49,-0.5
542,0.541,0.489,-0.25
544,0.543,0.488,-0.5
548,0.547,0.487,-0.25
551,0.55,0.486,-0.333
554,0.553,0.485,-0.333
557,0.556,0.484,-0.333
560,0.559,0.483,-0.333
563,0.562,0.482,-0.333
567,0.566,0.481,-0.25
570,0.569,0.48,-0.333
574,0.573,0.479,-0.25
577,0.576,0.478,-0.333
580,0.579,0.477,-0.333
582,0.581,0.476,-0.5
586,0.585,0.475,-0.25
589,0.588,0.474,-0.333
592,0.591,0.473,-0.333
595,0.594,0.472,-0.333
599,0.598,0.471,-0.25
601,0.6,0.47,-0.5
605,0.604,0.469,-0.25
607,0.606,0.468,-0.5
610,0.609,0.467,-0.333
614,0.613,0.466,-0.25
617,0.616,0.465,-0.333
620,0.619,0.464,-0.333
623,0.622,0.463,-0.333
625,0.624,0.462,-0.5
628,0.627,0.461,-0.333
632,0.631,0.46,-0.25
635,0.634,0.459,-0.333
638,0.637,0.458,-0.333
642,0.641,0.457,-0.25
645,0.644,0.456,-0.333
648,0.647,0.455,-0.333
651,0.65,0.454,-0.333
655,0.654,0.453,-0.25
658,0.657,0.452,-0.333
662,0.661,0.451,-0.25
665,0.664,0.45,-0.333
668,0.667,0.449,-0.333
672,0.671,0.448,-0.25
676,0.675,0.447,-0.25
678,0.677,0.446,-0.5
682,0.681,0.445,-0.25
685,0.684,0.444,-0.333
689,0.688,0.443,-0.25
692,0.691,0.442,-0.333
695,0.694,0.441,-0.333
698,0.697,0.44,-0.333
702,0.701,0.439,-0.25
705,0.704,0.438,-0.333
709,0.708,0.437,-0.25
712,0.711,0.436,-0.333
716,0.715,0.435,-0.25
719,0.718,0.434,-0.333
723,0.722,0.433,-0.25
726,0.725,0.432,-0.333
729,0.728,0.431,-0.333
732,0.731,0.43,-0.333
736,0.735,0.429,-0.25
739,0.738,0.428,-0.333
743,0.742,0.427,-0.25
746,0.745,0.426,-0.333
750,0.749,0.425,-0.25
754,0.753,0.424,-0.25
757,0.756,0.423,-0.333
761,0.76,0.422,-0.25
765,0.764,0.421,-0.25
768,0.767,0.42,-0.333
771,0.77,0.419,-0.333
775,0.774,0.418,-0.25
778,0.777,0.417,-0.333
781,0.78,0.416,-0.333
785,0.784,0.415,-0.25
789,0.788,0.414,-0.25
793,0.792,0.413,-0.25
796,0.795,0.412,-0.333
800,0.799,0.411,-0.25
803,0.802,0.41,-0.333
807,0.806,0.409,-0.25
811,0.81,0.408,-0.25
815,0.814,0.407,-0.25
818,0.817,0.406,-0.333
822,0.821,0.405,-0.25
825,0.824,0.404,-0.333
830,0.829,0.403,-0.2
834,0.833,0.402,-0.25
837,0.836,0.401,-0.333
841,0.84,0.4,-0.25
845,0.844,0.399,-0.25
848,0.847,0.398,-0.333
852,0.851,0.397,-0.25
855,0.854,0.396,-0.333
859,0.858,0.395,-0.25
863,0.862,0.394,-0.25
867,0.866,0.393,-0.25
870,0.869,0.392,-0.333
874,0.873,0.391,-0.25
878,0.877,0.39,-0.25
882,0.881,0.389,-0.25
885,0.884,0.388,-0.333
889,0.888,0.387,-0.25
892,0.891,0.386,-0.333
896,0.895,0.385,-0.25
899,0.898,0.384,-0.333
903,0.902,0.383,-0.25
907,0.906,0.382,-0.25
911,0.91,0.381,-0.25
914,0.913,0.38,-0.333
918,0.917,0.379,-0.25
921,0.92,0.378,-0.333
925,0.924,0.377,-0.25
929,0.928,0.376,-0.25
933,0.932,0.375,-0.25
936,0.935,0.374,-0.333
940,0.939,0.373,-0.25
943,0.942,0.372,-0.333
947,0.946,0.371,-0.25
951,0.95,0.37,-0.25
955,0.954,0.369,-0.25
958,0.957,0.368,-0.333
962,0.961,0.367,-0.25
966,0.965,0.366,-0.25
970,0.969,0.365,-0.25
974,0.973,0.364,-0.25
978,0.977,0.363,-0.25
981,0.98,0.362,-0.333
985,0.984,0.361,-0.25
988,0.987,0.36,-0.333
992,0.991,0.359,-0.25
996,0.995,0.358,-0.25
1000,0.999,0.357,-0.25
1003,1.002,0.356,-0.333
1007,1.006,0.355,-0.25
1011,1.01,0.354,-0.25
1016,1.015,0.353,-0.2
1019,1.018,0.352,-0.333
1023,1.022,0.351,-0.25
1027,1.026,0.35,-0.25
1031,1.03,0.349,-0.25
1035,1.034,0.348,-0.25
1039,1.038,0.347,-0.25
1042,1.041,0.346,-0.333
1047,1.046,0.345,-0.2
1050,1.049,0.344,-0.333
1054,1.053,0.343,-0.25
1058,1.057,0.342,-0.25
1061,1.06,0.341,-0.333
1065,1.064,0.34,-0.25
1070,1.069,0.339,-0.2
1073,1.072,0.338,-0.333
1078,1.077,0.337,-0.2
1081,1.08,0.336,-0.333
1085,1.084,0.335,-0.25
1089,1.088,0.334,-0.25
1093,1.092,0.333,-0.25
1097,1.096,0.332,-0.25
1101,1.1,0.331,-0.25
1106,1.105,0.33,-0.2
1111,1.11,0.329,-0.2
1114,1.113,0.328,-0.333
1118,1.117,0.327,-0.25
1123,1.122,0.326,-0.2
1127,1.126,0.325,-0.25
1131,1.13,0.324,-0.25
1135,1.134,0.323,-0.25
1139,1.138,0.322,-0.25
1144,1.143,0.321,-0.2
1148,1.147,0.32,-0.25
1153,1.152,0.319,-0.2
1157,1.156,0.318,-0.25
1161,1.16,0.317,-0.25
1165,1.164,0.316,-0.25
1170,1.169,0.315,-0.2
1174,1.173,0.314,-0.25
1179,1.178,0.313,-0.2
1183,1.182,0.312,-0.25
1187,1.186,0.311,-0.25
1191,1.19,0.31,-0.25
1196,1.195,0.309,-0.2
1200,1.199,0.308,-0.25
1205,1.204,0.307,-0.2
1208,1.207,0.306,-0.333
1213,1.212,0.305,-0.2
1217,1.216,0.304,-0.25
1222,1.221,0.303,-0.2
1226,1.225,0.302,-0.25
1232,1.231,0.301,-0.167
1236,1.235,0.3,-0.25
1240,1.239,0.299,-0.25
1244,1.243,0.298,-0.25
1249,1.248,0.297,-0.2
1253,1.252,0.296,-0.25
1258,1.257,0.295,-0.2
1262,1.261,0.294,-0.25
1268,1.267,0.293,-0.167
1272,1.271,0.292,-0.25
1277,1.276,0.291,-0.2
1280,1.279,0.29,-0.333
1286,1.285,0.289,-0.167
1289,1.288,0.288,-0.333
1294,1.293,0.287,-0.2
1298,1.297,0.286,-0.25
1303,1.302,0.285,-0.2
1307,1.306,0.284,-0.25
1313,1.312,0.283,-0.167
1317,1.316,0.282,-0.25
1322,1.321,0.281,-0.2
1326,1.325,0.28,-0.25
1331,1.33,0.279,-0.2
1336,1.335,0.278,-0.2
1341,1.34,0.277,-0.2
1345,1.344,0.276,-0.25
1350,1.349,0.275,-0.2
1354,1.353,0.274,-0.25
1359,1.358,0.273,-0.2
1364,1.363,0.272,-0.2
1368,1.367,0.271,-0.25
1373,1.372,0.27,-0.2
1379,1.378,0.269,-0.167
1383,1.382,0.268,-0.25
1389,1.388,0.267,-0.167
1393,1.392,0.266,-0.25
1399,1.398,0.265,-0.167
1403,1.402,0.264,-0.25
1409,1.408,0.263,-0.167
1413,1.412,0.262,-0.25
1419,1.418,0.261,-0.167
1423,1.422,0.26,-0.25
1429,1.428,0.259,-0.167
1433,1.432,0.258,-0.25
1439,1.438,0.257,-0.167
1443,1.442,0.256,-0.25
1449,1.448,0.255,-0.167
1453,1.452,0.254,-0.25
1459,1.458,0.253,-0.167
1463,1.462,0.252,-0.25
1469,1.468,0.251,-0.167
1473,1.472,0.25,-0.25
1479,1.478,0.249,-0.167
1484,1.483,0.248,-0.2
1489,1.488,0.247,-0.2
1493,1.492,0.246,-0.25
1499,1.498,0.245,-0.167
1503,1.502,0.244,-0.25
1509,1.508,0.243,-0.167
1513,1.512,0.242,-0.25
1519,1.518,0.241,-0.167
1524,1.523,0.24,-0.2
1529,1.528,0.239,-0.2
1534,1.533,0.238,-0.2
1539,1.538,0.237,-0.2
1543,1.542,0.236,-0.25
1549,1.548,0.235,-0.167
1553,1.552,0.234,-0.25
1559,1.558,0.233,-0.167
1563,1.562,0.232,-0.25
1568,1.567,0.231,-0.2
1573,1.572,0.23,-0.2
1578,1.577,0.229,-0.2
1583,1.582,0.228,-0.2
1589,1.588,0.227,-0.167
1593,1.592,0.226,-0.25
1599,1.598,0.225,-0.167
1603,1.602,0.224,-0.25
1609,1.608,0.223,-0.167
1613,1.612,0.222,-0.25
1618,1.617,0.221,-0.2
1623,1.622,0.22,-0.2
1629,1.628,0.219,-0.167
1634,1.633,0.218,-0.2
1639,1.638,0.217,-0.2
1643,1.642,0.216,-0.25
1649,1.648,0.215,-0.167
1653,1.652,0.214,-0.25
1659,1.658,0.213,-0.167
1663,1.662,0.212,-0.25
1669,1.668,0.211,-0.167
1674,1.673,0.21,-0.2
1679,1.678,0.209,-0.2
1684,1.683,0.208,-0.2
1689,1.688,0.207,-0.2
1693,1.692,0.206,-0.25
1699,1.698,0.205,-0.167
1703,1.702,0.204,-0.25
1709,1.708,0.203,-0.167
1713,1.712,0.202,-0.25
1718,1.717,0.201,-0.2
1723,1.722,0.2,-0.2
1728,1.727,0.199,-0.2
1733,1.732,0.198,-0.2
1739,1.738,0.197,-0.167
1743,1.742,0.196,-0.25
1749,1.748,0.195,-0.167
1753,1.752,0.194,-0.25
1759,1.758,0.193,-0.167
1763,1.762,0.192,-0.25
1768,1.767,0.191,-0.2
1773,1.772,0.19,-0.2
1779,1.778,0.189,-0.167
1783,1.782,0.188,-0.25
1789,1.788,0.187,-0.167
1793,1.792,0.186,-0.25
1799,1.798,0.185,-0.167
1803,1.802,0.184,-0.25
1809,1.808,0.183,-0.167
1813,1.812,0.182,-0.25
1819,1.818,0.181,-0.167
1823,1.822,0.18,-0.25
1829,1.828,0.179,-0.167
1834,1.833,0.178,-0.2
1839,1.838,0.177,-0.2
1843,1.842,0.176,-0.25
1849,1.848,0.175,-0.167
1853,1.852,0.174,-0.25
1859,1.858,0.173,-0.167
1863,1.862,0.172,-0.25
1869,1.868,0.171,-0.167
1873,1.872,0.17,-0.25
1878,1.877,0.169,-0.2
1883,1.882,0.168,-0.2
1889,1.888,0.167,-0.167
1893,1.892,0.166,-0.25
1899,1.898,0.165,-0.167
1903,1.902,0.164,-0.25
1909,1.908,0.163,-0.167
1913,1.912,0.162,-0.25
1918,1.917,0.161,-0.2
1923,1.922,0.16,-0.2
1929,1.928,0.159,-0.167
1933,1.932,0.158,-0.25
1939,1.938,0.157,-0.167
1943,1.942,0.156,-0.25
1949,1.948,0.155,-0.167
1953,1.952,0.154,-0.25
1959,1.958,0.153,-0.167
1963,1.962,0.152,-0.25
1969,1.968,0.151,-0.167
1973,1.972,0.15,-0.25
1979,1.978,0.149,-0.167
1983,1.982,0.148,-0.25
1989,1.988,0.147,-0.167
1993,1.992,0.146,-0.25
1999,1.998,0.145,-0.167
2003,2.002,0.144,-0.25
2009,2.008,0.143,-0.167
2013,2.012,0.142,-0.25
2019,2.018,0.141,-0.167
2023,2.022,0.14,-0.25
2028,2.027,0.139,-0.2
2033,2.032,0.138,-0.2
2039,2.038,0.137,-0.167
2043,2.042,0.136,-0.25
2049,2.048,0.135,-0.167
2053,2.052,0.134,-0.25
2059,2.058,0.133,-0.167
2063,2.062,0.132,-0.25
2069,2.068,0.131,-0.167
2073,2.072,0.13,-0.25
2079,2.078,0.129,-0.167
2083,2.082,0.128,-0.25
2089,2.088,0.127,-0.167
2093,2.092,0.126,-0.25
2099,2.098,0.125,-0.167
2103,2.102,0.124,-0.25
2109,2.108,0.123,-0.167
2113,2.112,0.122,-0.25
2119,2.118,0.121,-0.167
2124,2.123,0.12,-0.2
2129,2.128,0.119,-0.2
2133,2.132,0.118,-0.25
2139,2.138,0.117,-0.167
2143,2.142,0.116,-0.25
2149,2.148,0.115,-0.167
2153,2.152,0.114,-0.25
2158,2.157,0.113,-0.2
2163,2.162,0.112,-0.2
2169,2.168,0.111,-0.167
2173,2.172,0.11,-0.25
2178,2.177,0.109,-0.2
2183,2.182,0.108,-0.2
2189,2.188,0.107,-0.167
2193,2.192,0.106,-0.25
2199,2.198,0.105,-0.167
2203,2.202,0.104,-0.25
2209,2.208,0.103,-0.167
2213,2.212,0.102,-0.25
2219,2.218,0.101,-0.167
2223,2.222,0.1,-0.25
2228,2.227,0.099,-0.2
2233,2.232,0.098,-0.2
2239,2.238,0.097,-0.167
2243,2.242,0.096,-0.25
2249,2.248,0.095,-0.167
2253,2.252,0.094,-0.25
2259,2.258,0.093,-0.167
2264,2.263,0.092,-0.2
2269,2.268,0.091,-0.2
2274,2.273,0.09,-0.2
2280,2.279,0.089,-0.167
2284,2.283,0.088,-0.25
2290,2.289,0.087,-0.167
2296,2.295,0.086,-0.167
2301,2.3,0.085,-0.2
2305,2.304,0.084,-0.25
2312,2.311,0.083,-0.143
2317,2.316,0.082,-0.2
2322,2.321,0.081,-0.2
2327,2.326,0.08,-0.2
2332,2.331,0.079,-0.2
2337,2.336,0.078,-0.2
2343,2.342,0.077,-0.167
2348,2.347,0.076,-0.2
2354,2.353,0.075,-0.167
2358,2.357,0.074,-0.25
2364,2.363,0.073,-0.167
2369,2.368,0.072,-0.2
2375,2.374,0.071,-0.167
2380,2.379,0.07,-0.2
2386,2.385,0.069,-0.167
2391,2.39,0.068,-0.2
2397,2.396,0.067,-0.167
2402,2.401,0.066,-0.2
2409,2.408,0.065,-0.143
2415,2.414,0.064,-0.167
2421,2.42,0.063,-0.167
2427,2.426,0.062,-0.167
2433,2.432,0.061,-0.167
2438,2.437,0.06,-0.2
2444,2.443,0.059,-0.167
2450,2.449,0.058,-0.167
2455,2.454,0.057,-0.2
2460,2.459,0.056,-0.2
2467,2.466,0.055,-0.143
2472,2.471,0.054,-0.2
2478,2.477,0.053,-0.167
2484,2.483,0.052,-0.167
2491,2.49,0.051,-0.143
2496,2.495,0.05,-0.2
2502,2.501,0.049,-0.167
2507,2.506,0.048,-0.2
2513,2.512,0.047,-0.167
2520,2.519,0.046,-0.143
2526,2.525,0.045,-0.167
2532,2.531,0.044,-0.167
2538,2.537,0.043,-0.167
2543,2.542,0.042,-0.2
2549,2.548,0.041,-0.167
2555,2.554,0.04,-0.167
2561,2.56,0.039,-0.167
2568,2.567,0.038,-0.143
2574,2.573,0.037,-0.167
2580,2.579,0.036,-0.167
2586,2.585,0.035,-0.167
2592,2.591,0.034,-0.167
2600,2.599,0.033,-0.125
2605,2.604,0.032,-0.2
2613,2.612,0.031,-0.125
2618,2.617,0.03,-0.2
2626,2.625,0.029,-0.125
2633,2.632,0.028,-0.143
2639,2.638,0.027,-0.167
2646,2.645,0.026,-0.143
2654,2.653,0.025,-0.125
2659,2.658,0.024,-0.2
2666,2.665,0.023,-0.143
2673,2.672,0.022,-0.143
2679,2.678,0.021,-0.167
2686,2.685,0.02,-0.143
2696,2.695,0.019,-0.1
2705,2.704,0.018,-0.111
2711,2.71,0.017,-0.167
2717,2.716,0.016,-0.167
2723,2.722,0.015,-0.167
2729,2.728,0.014,-0.167
2739,2.738,0.013,-0.1
2747,2.746,0.012,-0.125
2754,2.753,0.011,-0.143
2761,2.76,0.01,-0.143
2769,2.768,0.009,-0.125
2776,2.775,0.008,-0.143
2785,2.784,0.007,-0.111
2792,2.791,0.006,-0.143
2799,2.798,0.005,-0.143
2809,2.808,0.004,-0.1
2817,2.816,0.003,-0.125
2826,2.825,0.002,-0.111
2835,2.834,0.001,-0.111
2841,2.84,0.0,-0.167
2850,2.849,-0.001,-0.111
2857,2.856,-0.002,-0.143
2864,2.863,-0.003,-0.143
2873,2.872,-0.004,-0.111
2881,2.88,-0.005,-0.125
2890,2.889,-0.006,-0.111
2898,2.897,-0.007,-0.125
2908,2.907,-0.008,-0.1
2919,2.918,-0.009,-0.091
2926,2.925,-0.01,-0.143
2936,2.935,-0.011,-0.1
2944,2.943,-0.012,-0.125
2954,2.953,-0.013,-0.1
2962,2.961,-0.014,-0.125
2973,2.972,-0.015,-0.091
2981,2.98,-0.016,-0.125
2992,2.991,-0.017,-0.091
3001,3.0,-0.018,-0.111
