,Unnamed: 0,time,position,velocity
0,0,0.0,0.7,0.0
1,2,0.01,0.692,0.8
2,3,0.02,0.686,0.6
3,4,0.03,0.683,0.3
4,5,0.04,0.68,0.3
5,6,0.05,0.674,0.6
6,7,0.06,0.669,0.5
7,8,0.07,0.664,0.5
8,9,0.08,0.661,0.3
9,10,0.09,0.658,0.3
10,11,0.1,0.654,0.4
11,12,0.11,0.649,0.5
12,13,0.12,0.646,0.3
13,14,0.13,0.643,0.3
14,15,0.14,0.639,0.4
15,16,0.15,0.634,0.5
16,17,0.16,0.631,0.3
17,18,0.17,0.628,0.3
18,19,0.18,0.623,0.5
19,20,0.19,0.62,0.3
20,21,0.2,0.616,0.4
21,22,0.21,0.612,0.4
22,23,0.22,0.608,0.4
23,24,0.23,0.605,0.3
24,25,0.24,0.601,0.4
25,26,0.25,0.598,0.3
26,27,0.26,0.595,0.3
27,28,0.27,0.592,0.3
28,29,0.28,0.587,0.5
29,30,0.29,0.584,0.3
30,31,0.3,0.58,0.4
31,32,0.31,0.577,0.3
32,33,0.32,0.573,0.4
33,34,0.33,0.569,0.4
34,35,0.34,0.565,0.4
35,36,0.35,0.561,0.4
36,37,0.36,0.557,0.4
37,38,0.37,0.554,0.3
38,39,0.38,0.55,0.4
39,40,0.39,0.546,0.4
40,41,0.4,0.542,0.4
41,42,0.41,0.538,0.4
42,43,0.42,0.535,0.3
43,44,0.43,0.532,0.3
44,45,0.44,0.529,0.3
45,46,0.45,0.525,0.4
46,47,0.46,0.522,0.3
47,48,0.47,0.518,0.4
48,49,0.48,0.515,0.3
49,50,0.49,0.512,0.3
50,51,0.5,0.508,0.4
51,52,0.51,0.505,0.3
52,53,0.52,0.501,0.4
53,54,0.53,0.497,0.4
54,55,0.54,0.494,0.3
55,56,0.55,0.492,0.2
56,57,0.56,0.49,0.2
57,58,0.57,0.487,0.3
58,59,0.58,0.484,0.3
59,60,0.59,0.481,0.3
60,61,0.6,0.478,0.3
61,62,0.61,0.476,0.2
62,63,0.62,0.472,0.4
63,64,0.63,0.469,0.3
64,65,0.64,0.467,0.2
65,66,0.65,0.464,0.3
66,67,0.66,0.462,0.2
67,68,0.67,0.458,0.4
68,69,0.68,0.455,0.3
69,70,0.69,0.452,0.3
70,71,0.7,0.45,0.2
71,72,0.71,0.447,0.3
72,73,0.72,0.444,0.3
73,74,0.73,0.441,0.3
74,75,0.74,0.438,0.3
75,76,0.75,0.435,0.3
76,77,0.76,0.432,0.3
77,78,0.77,0.429,0.3
78,79,0.78,0.426,0.3
79,80,0.79,0.423,0.3
80,81,0.8,0.42,0.3
81,82,0.81,0.417,0.3
82,83,0.82,0.414,0.3
83,84,0.83,0.411,0.3
84,85,0.84,0.408,0.3
85,86,0.85,0.405,0.3
86,87,0.86,0.403,0.2
87,88,0.87,0.401,0.2
88,89,0.88,0.398,0.3
89,90,0.89,0.395,0.3
90,91,0.9,0.392,0.3
91,92,0.91,0.389,0.3
92,93,0.92,0.387,0.2
93,94,0.93,0.384,0.3
94,95,0.94,0.381,0.3
95,96,0.95,0.379,0.2
96,97,0.96,0.376,0.3
97,98,0.97,0.373,0.3
98,99,0.98,0.371,0.2
99,100,0.99,0.368,0.3
100,101,1.0,0.366,0.2
101,102,1.01,0.363,0.3
102,103,1.02,0.36,0.3
103,104,1.03,0.358,0.2
104,105,1.04,0.356,0.2
105,106,1.05,0.353,0.3
106,107,1.06,0.351,0.2
107,108,1.07,0.349,0.2
108,109,1.08,0.347,0.2
109,110,1.09,0.345,0.2
110,111,1.1,0.343,0.2
111,112,1.11,0.341,0.2
112,113,1.12,0.339,0.2
113,114,1.13,0.336,0.3
114,115,1.14,0.334,0.2
115,116,1.15,0.332,0.2
116,117,1.16,0.329,0.3
117,118,1.17,0.327,0.2
118,119,1.18,0.324,0.3
119,120,1.19,0.321,0.3
120,121,1.2,0.318,0.3
121,122,1.21,0.315,0.3
122,123,1.22,0.313,0.2
123,124,1.23,0.31,0.3
124,125,1.24,0.308,0.2
125,126,1.25,0.305,0.3
126,127,1.26,0.302,0.3
127,128,1.27,0.3,0.2
128,129,1.28,0.298,0.2
129,130,1.29,0.296,0.2
130,131,1.3,0.294,0.2
131,132,1.31,0.292,0.2
132,133,1.32,0.289,0.3
133,134,1.33,0.287,0.2
134,135,1.34,0.285,0.2
135,136,1.35,0.283,0.2
136,137,1.36,0.281,0.2
137,138,1.37,0.279,0.2
138,139,1.38,0.277,0.2
139,140,1.39,0.275,0.2
140,141,1.4,0.273,0.2
141,142,1.41,0.271,0.2
142,143,1.42,0.269,0.2
143,144,1.43,0.267,0.2
144,145,1.44,0.265,0.2
145,146,1.45,0.263,0.2
146,147,1.46,0.261,0.2
147,148,1.47,0.259,0.2
148,149,1.48,0.257,0.2
149,150,1.49,0.255,0.2
150,151,1.5,0.253,0.2
151,152,1.51,0.251,0.2
152,153,1.52,0.249,0.2
153,154,1.53,0.247,0.2
154,155,1.54,0.245,0.2
155,156,1.55,0.243,0.2
156,157,1.56,0.241,0.2
157,158,1.57,0.239,0.2
158,159,1.58,0.237,0.2
159,160,1.59,0.235,0.2
160,161,1.6,0.233,0.2
161,162,1.61,0.231,0.2
162,163,1.62,0.229,0.2
163,164,1.63,0.227,0.2
164,165,1.64,0.225,0.2
165,166,1.65,0.223,0.2
166,167,1.66,0.221,0.2
167,168,1.67,0.219,0.2
168,169,1.68,0.217,0.2
169,170,1.69,0.215,0.2
170,171,1.7,0.213,0.2
171,172,1.71,0.211,0.2
172,173,1.72,0.209,0.2
173,174,1.73,0.207,0.2
174,175,1.74,0.205,0.2
175,176,1.75,0.203,0.2
176,177,1.76,0.201,0.2
177,178,1.77,0.199,0.2
178,179,1.78,0.197,0.2
179,180,1.79,0.195,0.2
180,181,1.8,0.193,0.2
181,182,1.81,0.191,0.2
182,183,1.82,0.189,0.2
183,184,1.83,0.187,0.2
184,185,1.84,0.185,0.2
185,186,1.85,0.183,0.2
186,187,1.86,0.181,0.2
187,188,1.87,0.179,0.2
188,189,1.88,0.177,0.2
189,190,1.89,0.175,0.2
190,191,1.9,0.173,0.2
191,192,1.91,0.171,0.2
192,193,1.92,0.169,0.2
193,194,1.93,0.167,0.2
194,195,1.94,0.165,0.2
195,196,1.95,0.163,0.2
196,197,1.96,0.161,0.2
197,198,1.97,0.159,0.2
198,199,1.98,0.157,0.2
199,200,1.99,0.155,0.2
200,201,2.0,0.153,0.2
201,202,2.01,0.151,0.2
202,203,2.02,0.149,0.2
203,204,2.03,0.147,0.2
204,205,2.04,0.145,0.2
205,206,2.05,0.143,0.2
206,207,2.06,0.141,0.2
207,208,2.07,0.139,0.2
208,209,2.08,0.137,0.2
209,210,2.09,0.136,0.1
210,211,2.1,0.134,0.2
211,212,2.11,0.132,0.2
212,213,2.12,0.13,0.2
213,214,2.13,0.128,0.2
214,215,2.14,0.126,0.2
215,216,2.15,0.124,0.2
216,217,2.16,0.122,0.2
217,218,2.17,0.12,0.2
218,219,2.18,0.118,0.2
219,220,2.19,0.116,0.2
220,221,2.2,0.114,0.2
221,222,2.21,0.112,0.2
222,223,2.22,0.11,0.2
223,224,2.23,0.108,0.2
224,225,2.24,0.107,0.1
225,226,2.25,0.105,0.2
226,227,2.26,0.103,0.2
227,228,2.27,0.102,0.1
228,229,2.28,0.1,0.2
229,230,2.29,0.099,0.1
230,231,2.3,0.098,0.1
231,232,2.31,0.096,0.2
232,233,2.32,0.095,0.1
233,234,2.33,0.094,0.1
234,235,2.34,0.092,0.2
235,236,2.35,0.09,0.2
236,237,2.36,0.088,0.2
237,238,2.37,0.086,0.2
238,239,2.38,0.085,0.1
239,240,2.39,0.084,0.1
240,241,2.4,0.082,0.2
241,242,2.41,0.081,0.1
242,243,2.42,0.079,0.2
243,244,2.43,0.078,0.1
244,245,2.44,0.077,0.1
245,246,2.45,0.075,0.2
246,247,2.46,0.073,0.2
247,248,2.47,0.072,0.1
248,249,2.48,0.071,0.1
249,250,2.49,0.069,0.2
250,251,2.5,0.068,0.1
251,252,2.51,0.066,0.2
252,253,2.52,0.065,0.1
253,254,2.53,0.063,0.2
254,255,2.54,0.061,0.2
255,256,2.55,0.059,0.2
256,257,2.56,0.058,0.1
257,258,2.57,0.056,0.2
258,259,2.58,0.055,0.1
259,260,2.59,0.053,0.2
260,261,2.6,0.051,0.2
261,262,2.61,0.05,0.1
262,263,2.62,0.048,0.2
263,264,2.63,0.046,0.2
264,265,2.64,0.044,0.2
265,266,2.65,0.043,0.1
266,267,2.66,0.041,0.2
